# Rest-frame phase (days) and absolute magnitude (AB) per band
phase_rest_day F129 F158 g r i
0.047523 -7.8351 -7.5228 -8.5752 -8.5540 -8.4369
0.142728 -9.4587 -9.2221 -9.4000 -9.6894 -9.7520
0.237933 -10.1549 -9.9673 -9.5897 -10.0712 -10.2480
0.333138 -10.5848 -10.4360 -9.6260 -10.2541 -10.5197
0.428343 -10.8877 -10.7719 -9.5989 -10.3482 -10.6883
0.523548 -11.1165 -11.0299 -9.5394 -10.3934 -10.7984
0.618753 -11.2969 -11.2369 -9.4615 -10.4084 -10.8715
0.713957 -11.4433 -11.4078 -9.3721 -10.4032 -10.9193
0.809162 -11.5646 -11.5519 -9.2753 -10.3838 -10.9488
0.904367 -11.6667 -11.6756 -9.1733 -10.3537 -10.9644
0.999572 -11.7534 -11.7828 -9.0683 -10.3160 -10.9695
1.094777 -11.8264 -11.8735 -8.9747 -10.2806 -10.9713
1.189982 -11.8782 -11.9281 -9.0020 -10.3162 -11.0124
1.285187 -11.9229 -11.9726 -9.0479 -10.3618 -11.0577
1.380392 -11.9636 -12.0134 -9.0883 -10.4023 -11.0983
1.475597 -12.0008 -12.0505 -9.1255 -10.4395 -11.1355
1.570802 -12.0348 -12.0846 -9.1595 -10.4735 -11.1695
1.666007 -12.0661 -12.1159 -9.1909 -10.5048 -11.2008
1.761212 -12.0950 -12.1447 -9.2197 -10.5337 -11.2297
1.856417 -12.1216 -12.1714 -9.2464 -10.5604 -11.2564
1.951621 -12.1463 -12.1961 -9.2711 -10.5850 -11.2810
2.046826 -12.1692 -12.2189 -9.2939 -10.6079 -11.3039
2.142031 -12.1904 -12.2402 -9.3151 -10.6291 -11.3251
2.237236 -12.2101 -12.2599 -9.3348 -10.6488 -11.3448
2.332441 -12.2284 -12.2782 -9.3532 -10.6671 -11.3631
2.427646 -12.2454 -12.2952 -9.3702 -10.6841 -11.3801
2.522851 -12.2613 -12.3110 -9.3860 -10.7000 -11.3960
2.618056 -12.2760 -12.3257 -9.4007 -10.7147 -11.4107
2.713261 -12.2896 -12.3394 -9.4143 -10.7283 -11.4243
2.808466 -12.3023 -12.3520 -9.4270 -10.7410 -11.4370
2.903671 -12.3140 -12.3638 -9.4388 -10.7528 -11.4488
2.998876 -12.3249 -12.3747 -9.4497 -10.7636 -11.4596
3.094081 -12.3350 -12.3848 -9.4597 -10.7737 -11.4697
3.189285 -12.3443 -12.3940 -9.4690 -10.7830 -11.4790
3.284490 -12.3528 -12.4026 -9.4776 -10.7916 -11.4876
3.379695 -12.3607 -12.4104 -9.4854 -10.7994 -11.4954
3.474900 -12.3679 -12.4176 -9.4926 -10.8066 -11.5026
3.570105 -12.3744 -12.4242 -9.4991 -10.8131 -11.5091
3.665310 -12.3803 -12.4301 -9.5051 -10.8190 -11.5150
3.760515 -12.3857 -12.4354 -9.5104 -10.8244 -11.5204
3.855720 -12.3904 -12.4402 -9.5152 -10.8291 -11.5252
3.950925 -12.3947 -12.4444 -9.5194 -10.8334 -11.5294
4.046130 -12.3984 -12.4481 -9.5231 -10.8371 -11.5331
4.141335 -12.4016 -12.4513 -9.5263 -10.8403 -11.5363
4.236540 -12.4043 -12.4540 -9.5290 -10.8430 -11.5390
4.331745 -12.4065 -12.4563 -9.5313 -10.8452 -11.5413
4.426949 -12.4083 -12.4581 -9.5331 -10.8470 -11.5430
4.522154 -12.4097 -12.4594 -9.5344 -10.8484 -11.5444
4.617359 -12.4106 -12.4603 -9.5353 -10.8493 -11.5453
4.712564 -12.4111 -12.4608 -9.5358 -10.8498 -11.5458
4.807769 -12.4112 -12.4609 -9.5359 -10.8499 -11.5459
4.902974 -12.4109 -12.4606 -9.5356 -10.8496 -11.5456
4.998179 -12.4102 -12.4600 -9.5349 -10.8489 -11.5449
5.093384 -12.4091 -12.4589 -9.5339 -10.8479 -11.5439
5.188589 -12.4077 -12.4575 -9.5325 -10.8464 -11.5424
5.283794 -12.4059 -12.4557 -9.5307 -10.8447 -11.5407
5.378999 -12.4038 -12.4536 -9.5286 -10.8425 -11.5385
5.474204 -12.4014 -12.4511 -9.5261 -10.8401 -11.5361
5.569409 -12.3986 -12.4483 -9.5233 -10.8373 -11.5333
5.664613 -12.3954 -12.4452 -9.5202 -10.8341 -11.5301
5.759818 -12.3920 -12.4417 -9.5167 -10.8307 -11.5267
5.855023 -12.3882 -12.4380 -9.5130 -10.8269 -11.5229
5.950228 -12.3841 -12.4339 -9.5089 -10.8229 -11.5189
6.045433 -12.3798 -12.4295 -9.5045 -10.8185 -11.5145
6.140638 -12.3751 -12.4249 -9.4998 -10.8138 -11.5098
6.235843 -12.3702 -12.4199 -9.4949 -10.8089 -11.5049
6.331048 -12.3649 -12.4147 -9.4897 -10.8036 -11.4996
6.426253 -12.3594 -12.4091 -9.4841 -10.7981 -11.4941
6.521458 -12.3536 -12.4033 -9.4783 -10.7923 -11.4883
6.616663 -12.3475 -12.3973 -9.4723 -10.7862 -11.4822
6.711868 -12.3412 -12.3909 -9.4659 -10.7799 -11.4759
6.807073 -12.3346 -12.3843 -9.4593 -10.7733 -11.4693
6.902277 -12.3277 -12.3775 -9.4525 -10.7664 -11.4625
6.997482 -12.3206 -12.3704 -9.4454 -10.7593 -11.4553
7.092687 -12.3133 -12.3630 -9.4380 -10.7520 -11.4480
7.187892 -12.3057 -12.3554 -9.4304 -10.7444 -11.4404
7.283097 -12.2978 -12.3476 -9.4225 -10.7365 -11.4325
7.378302 -12.2897 -12.3395 -9.4145 -10.7284 -11.4244
7.473507 -12.2814 -12.3311 -9.4061 -10.7201 -11.4161
7.568712 -12.2728 -12.3226 -9.3976 -10.7115 -11.4075
7.663917 -12.2640 -12.3138 -9.3888 -10.7028 -11.3988
7.759122 -12.2550 -12.3048 -9.3798 -10.6937 -11.3897
7.854327 -12.2458 -12.2955 -9.3705 -10.6845 -11.3805
7.949532 -12.2363 -12.2861 -9.3611 -10.6750 -11.3711
8.044737 -12.2267 -12.2764 -9.3514 -10.6654 -11.3614
8.139941 -12.2168 -12.2665 -9.3415 -10.6555 -11.3515
8.235146 -12.2067 -12.2564 -9.3314 -10.6454 -11.3414
8.330351 -12.1964 -12.2461 -9.3211 -10.6351 -11.3311
8.425556 -12.1859 -12.2356 -9.3106 -10.6246 -11.3206
8.520761 -12.1752 -12.2249 -9.2999 -10.6139 -11.3099
8.615966 -12.1643 -12.2140 -9.2890 -10.6030 -11.2990
8.711171 -12.1531 -12.2029 -9.2779 -10.5919 -11.2879
8.806376 -12.1418 -12.1916 -9.2666 -10.5806 -11.2766
8.901581 -12.1304 -12.1801 -9.2551 -10.5691 -11.2651
8.996786 -12.1187 -12.1684 -9.2434 -10.5574 -11.2534
9.091991 -12.1068 -12.1566 -9.2315 -10.5455 -11.2415
9.187196 -12.0948 -12.1445 -9.2195 -10.5335 -11.2295
9.282401 -12.0825 -12.1323 -9.2073 -10.5212 -11.2173
9.377605 -12.0701 -12.1199 -9.1949 -10.5088 -11.2049
9.472810 -12.0576 -12.1073 -9.1823 -10.4963 -11.1923
9.568015 -12.0448 -12.0946 -9.1695 -10.4835 -11.1795
9.663220 -12.0319 -12.0816 -9.1566 -10.4706 -11.1666
9.758425 -12.0188 -12.0686 -9.1435 -10.4575 -11.1535
9.853630 -12.0056 -12.0553 -9.1303 -10.4443 -11.1403
9.948835 -11.9922 -12.0419 -9.1169 -10.4309 -11.1269
10.044040 -11.9786 -12.0283 -9.1033 -10.4173 -11.1133
10.139245 -11.9649 -12.0146 -9.0896 -10.4036 -11.0996
10.234450 -11.9510 -12.0007 -9.0757 -10.3897 -11.0857
10.329655 -11.9370 -11.9867 -9.0617 -10.3757 -11.0717
10.424860 -11.9228 -11.9725 -9.0475 -10.3615 -11.0575
10.520065 -11.9085 -11.9582 -9.0332 -10.3472 -11.0432
10.615269 -11.8940 -11.9438 -9.0187 -10.3327 -11.0287
10.710474 -11.8794 -11.9292 -9.0041 -10.3181 -11.0141
10.805679 -11.8647 -11.9144 -8.9894 -10.3034 -10.9994
10.900884 -11.8498 -11.8995 -8.9745 -10.2885 -10.9845
10.996089 -11.8348 -11.8845 -8.9595 -10.2735 -10.9695
11.091294 -11.8197 -11.8694 -8.9444 -10.2584 -10.9544
11.186499 -11.8044 -11.8542 -8.9291 -10.2431 -10.9391
11.281704 -11.7890 -11.8388 -8.9138 -10.2277 -10.9237
11.376909 -11.7735 -11.8233 -8.8983 -10.2122 -10.9082
11.472114 -11.7579 -11.8077 -8.8827 -10.1966 -10.8926
11.567319 -11.7422 -11.7919 -8.8669 -10.1809 -10.8769
11.662524 -11.7263 -11.7761 -8.8511 -10.1651 -10.8611
11.757729 -11.7104 -11.7601 -8.8351 -10.1491 -10.8451
11.852933 -11.6943 -11.7441 -8.8191 -10.1331 -10.8291
11.948138 -11.6782 -11.7279 -8.8029 -10.1169 -10.8129
12.043343 -11.6619 -11.7117 -8.7867 -10.1006 -10.7966
12.138548 -11.6456 -11.6953 -8.7703 -10.0843 -10.7803
12.233753 -11.6291 -11.6789 -8.7539 -10.0678 -10.7638
12.328958 -11.6126 -11.6623 -8.7373 -10.0513 -10.7473
12.424163 -11.5960 -11.6457 -8.7207 -10.0347 -10.7307
12.519368 -11.5793 -11.6290 -8.7040 -10.0180 -10.7140
12.614573 -11.5625 -11.6122 -8.6872 -10.0012 -10.6972
12.709778 -11.5456 -11.5954 -8.6704 -9.9843 -10.6803
12.804983 -11.5287 -11.5784 -8.6534 -9.9674 -10.6634
12.900188 -11.5117 -11.5614 -8.6364 -9.9504 -10.6464
12.995393 -11.4946 -11.5443 -8.6193 -9.9333 -10.6293
13.090597 -11.4774 -11.5272 -8.6022 -9.9161 -10.6121
13.185802 -11.4602 -11.5100 -8.5850 -9.8989 -10.5949
13.281007 -11.4430 -11.4927 -8.5677 -9.8817 -10.5777
13.376212 -11.4256 -11.4754 -8.5504 -9.8644 -10.5604
13.471417 -11.4083 -11.4580 -8.5330 -9.8470 -10.5430
13.566622 -11.3909 -11.4406 -8.5156 -9.8296 -10.5256
13.661827 -11.3734 -11.4231 -8.4981 -9.8121 -10.5081
13.757032 -11.3559 -11.4056 -8.4806 -9.7946 -10.4906
13.852237 -11.3383 -11.3881 -8.4631 -9.7770 -10.4730
13.947442 -11.3208 -11.3705 -8.4455 -9.7595 -10.4555
14.042647 -11.3031 -11.3529 -8.4279 -9.7418 -10.4378
14.137852 -11.2855 -11.3352 -8.4102 -9.7242 -10.4202
14.233057 -11.2678 -11.3176 -8.3926 -9.7065 -10.4025
14.328261 -11.2501 -11.2999 -8.3749 -9.6888 -10.3849
14.423466 -11.2324 -11.2822 -8.3572 -9.6711 -10.3671
14.518671 -11.2147 -11.2645 -8.3395 -9.6534 -10.3494
14.613876 -11.1970 -11.2467 -8.3217 -9.6357 -10.3317
14.709081 -11.1793 -11.2290 -8.3040 -9.6180 -10.3140
14.804286 -11.1615 -11.2113 -8.2862 -9.6002 -10.2962
14.899491 -11.1438 -11.1935 -8.2685 -9.5825 -10.2785
14.994696 -11.1260 -11.1758 -8.2508 -9.5647 -10.2607
15.089901 -11.1083 -11.1580 -8.2330 -9.5470 -10.2430
15.185106 -11.0906 -11.1403 -8.2153 -9.5293 -10.2253
15.280311 -11.0728 -11.1226 -8.1976 -9.5115 -10.2076
15.375516 -11.0551 -11.1049 -8.1799 -9.4938 -10.1899
15.470721 -11.0375 -11.0872 -8.1622 -9.4762 -10.1722
15.565925 -11.0198 -11.0696 -8.1445 -9.4585 -10.1545
15.661130 -11.0022 -11.0519 -8.1269 -9.4409 -10.1369
15.756335 -10.9846 -11.0343 -8.1093 -9.4233 -10.1193
15.851540 -10.9670 -11.0168 -8.0918 -9.4057 -10.1017
15.946745 -10.9495 -10.9992 -8.0742 -9.3882 -10.0842
16.041950 -10.9320 -10.9818 -8.0567 -9.3707 -10.0667
16.137155 -10.9146 -10.9643 -8.0393 -9.3533 -10.0493
16.232360 -10.8972 -10.9469 -8.0219 -9.3359 -10.0319
16.327565 -10.8798 -10.9296 -8.0045 -9.3185 -10.0145
16.422770 -10.8625 -10.9123 -7.9872 -9.3012 -9.9972
16.517975 -10.8453 -10.8950 -7.9700 -9.2840 -9.9800
16.613180 -10.8281 -10.8778 -7.9528 -9.2668 -9.9628
16.708385 -10.8109 -10.8607 -7.9357 -9.2497 -9.9457
16.803589 -10.7939 -10.8436 -7.9186 -9.2326 -9.9286
16.898794 -10.7769 -10.8266 -7.9016 -9.2156 -9.9116
16.993999 -10.7600 -10.8097 -7.8847 -9.1987 -9.8947
17.089204 -10.7431 -10.7929 -7.8679 -9.1818 -9.8778
17.184409 -10.7264 -10.7761 -7.8511 -9.1651 -9.8611
17.279614 -10.7097 -10.7594 -7.8344 -9.1484 -9.8444
17.374819 -10.6930 -10.7428 -7.8178 -9.1318 -9.8278
17.470024 -10.6765 -10.7263 -7.8012 -9.1152 -9.8112
17.565229 -10.6601 -10.7098 -7.7848 -9.0988 -9.7948
17.660434 -10.6437 -10.6935 -7.7684 -9.0824 -9.7784
17.755639 -10.6274 -10.6772 -7.7522 -9.0662 -9.7622
17.850844 -10.6113 -10.6610 -7.7360 -9.0500 -9.7460
17.946049 -10.5952 -10.6450 -7.7199 -9.0339 -9.7299
18.041253 -10.5792 -10.6290 -7.7040 -9.0179 -9.7139
18.136458 -10.5633 -10.6131 -7.6881 -9.0021 -9.6981
18.231663 -10.5476 -10.5973 -7.6723 -8.9863 -9.6823
18.326868 -10.5319 -10.5816 -7.6566 -8.9706 -9.6666
18.422073 -10.5163 -10.5661 -7.6411 -8.9550 -9.6510
18.517278 -10.5009 -10.5506 -7.6256 -8.9396 -9.6356
18.612483 -10.4855 -10.5353 -7.6103 -8.9242 -9.6202
18.707688 -10.4703 -10.5200 -7.5950 -8.9090 -9.6050
18.802893 -10.4552 -10.5049 -7.5799 -8.8939 -9.5899
18.898098 -10.4402 -10.4899 -7.5649 -8.8789 -9.5749
18.993303 -10.4253 -10.4750 -7.5500 -8.8640 -9.5600
19.088508 -10.4105 -10.4602 -7.5352 -8.8492 -9.5452
19.183713 -10.3958 -10.4456 -7.5205 -8.8345 -9.5305
19.278918 -10.3813 -10.4310 -7.5060 -8.8200 -9.5160
19.374122 -10.3668 -10.4166 -7.4916 -8.8056 -9.5016
19.469327 -10.3525 -10.4023 -7.4773 -8.7912 -9.4873
19.564532 -10.3384 -10.3881 -7.4631 -8.7771 -9.4731
19.659737 -10.3243 -10.3740 -7.4490 -8.7630 -9.4590
19.754942 -10.3104 -10.3601 -7.4351 -8.7491 -9.4451
19.850147 -10.2966 -10.3463 -7.4213 -8.7353 -9.4313
19.945352 -10.2829 -10.3326 -7.4076 -8.7216 -9.4176
20.040557 -10.2693 -10.3191 -7.3940 -8.7080 -9.4040
20.135762 -10.2559 -10.3056 -7.3806 -8.6946 -9.3906
20.230967 -10.2426 -10.2923 -7.3673 -8.6813 -9.3773
20.326172 -10.2294 -10.2791 -7.3541 -8.6681 -9.3641
20.421377 -10.2163 -10.2661 -7.3411 -8.6551 -9.3511
20.516582 -10.2034 -10.2532 -7.3282 -8.6421 -9.3381
20.611786 -10.1906 -10.2404 -7.3154 -8.6293 -9.3253
20.706991 -10.1779 -10.2277 -7.3027 -8.6167 -9.3127
20.802196 -10.1654 -10.2151 -7.2901 -8.6041 -9.3001
20.897401 -10.1530 -10.2027 -7.2777 -8.5917 -9.2877
20.992606 -10.1407 -10.1904 -7.2654 -8.5794 -9.2754
21.087811 -10.1285 -10.1782 -7.2532 -8.5672 -9.2632
21.183016 -10.1164 -10.1662 -7.2412 -8.5552 -9.2512
21.278221 -10.1045 -10.1543 -7.2293 -8.5432 -9.2392
21.373426 -10.0927 -10.1425 -7.2175 -8.5314 -9.2274
21.468631 -10.0811 -10.1308 -7.2058 -8.5198 -9.2158
21.563836 -10.0695 -10.1193 -7.1943 -8.5082 -9.2042
21.659041 -10.0581 -10.1078 -7.1828 -8.4968 -9.1928
21.754246 -10.0468 -10.0965 -7.1715 -8.4855 -9.1815
21.849450 -10.0356 -10.0854 -7.1604 -8.4743 -9.1703
21.944655 -10.0246 -10.0743 -7.1493 -8.4633 -9.1593
22.039860 -10.0136 -10.0634 -7.1384 -8.4523 -9.1483
22.135065 -10.0028 -10.0526 -7.1276 -8.4415 -9.1375
22.230270 -9.9921 -10.0419 -7.1169 -8.4308 -9.1268
22.325475 -9.9816 -10.0313 -7.1063 -8.4203 -9.1163
22.420680 -9.9711 -10.0208 -7.0958 -8.4098 -9.1058
22.515885 -9.9607 -10.0105 -7.0855 -8.3994 -9.0954
22.611090 -9.9505 -10.0002 -7.0752 -8.3892 -9.0852
22.706295 -9.9404 -9.9901 -7.0651 -8.3791 -9.0751
22.801500 -9.9304 -9.9801 -7.0551 -8.3691 -9.0651
22.896705 -9.9205 -9.9702 -7.0452 -8.3592 -9.0552
22.991910 -9.9107 -9.9604 -7.0354 -8.3494 -9.0454
23.087114 -9.9010 -9.9507 -7.0257 -8.3397 -9.0357
23.182319 -9.8914 -9.9412 -7.0161 -8.3301 -9.0261
23.277524 -9.8820 -9.9317 -7.0067 -8.3207 -9.0167
23.372729 -9.8726 -9.9223 -6.9973 -8.3113 -9.0073
23.467934 -9.8634 -9.9131 -6.9881 -8.3021 -8.9981
23.563139 -9.8542 -9.9040 -6.9789 -8.2929 -8.9889
23.658344 -9.8452 -9.8949 -6.9699 -8.2839 -8.9799
23.753549 -9.8362 -9.8860 -6.9610 -8.2749 -8.9709
23.848754 -9.8274 -9.8771 -6.9521 -8.2661 -8.9621
23.943959 -9.8187 -9.8684 -6.9434 -8.2574 -8.9534
24.039164 -9.8100 -9.8598 -6.9347 -8.2487 -8.9447
24.134369 -9.8015 -9.8512 -6.9262 -8.2402 -8.9362
24.229574 -9.7930 -9.8428 -6.9177 -8.2317 -8.9277
24.324778 -9.7846 -9.8344 -6.9094 -8.2234 -8.9194
24.419983 -9.7764 -9.8261 -6.9011 -8.2151 -8.9111
24.515188 -9.7682 -9.8179 -6.8929 -8.2069 -8.9029
24.610393 -9.7601 -9.8098 -6.8848 -8.1988 -8.8948
24.705598 -9.7521 -9.8018 -6.8768 -8.1908 -8.8868
24.800803 -9.7442 -9.7939 -6.8689 -8.1829 -8.8789
24.896008 -9.7364 -9.7861 -6.8611 -8.1751 -8.8711
24.991213 -9.7286 -9.7784 -6.8534 -8.1673 -8.8633
25.086418 -9.7210 -9.7707 -6.8457 -8.1597 -8.8557
25.181623 -9.7134 -9.7632 -6.8381 -8.1521 -8.8481
25.276828 -9.7059 -9.7557 -6.8307 -8.1446 -8.8406
25.372033 -9.6985 -9.7483 -6.8233 -8.1372 -8.8332
25.467238 -9.6912 -9.7410 -6.8159 -8.1299 -8.8259
25.562442 -9.6840 -9.7337 -6.8087 -8.1227 -8.8187
25.657647 -9.6768 -9.7266 -6.8015 -8.1155 -8.8115
25.752852 -9.6697 -9.7195 -6.7945 -8.1084 -8.8044
25.848057 -9.6627 -9.7125 -6.7875 -8.1014 -8.7974
25.943262 -9.6558 -9.7055 -6.7805 -8.0945 -8.7905
26.038467 -9.6489 -9.6987 -6.7737 -8.0876 -8.7836
26.133672 -9.6421 -9.6919 -6.7669 -8.0808 -8.7768
26.228877 -9.6354 -9.6852 -6.7601 -8.0741 -8.7701
26.324082 -9.6288 -9.6785 -6.7535 -8.0675 -8.7635
26.419287 -9.6222 -9.6719 -6.7469 -8.0609 -8.7569
26.514492 -9.6157 -9.6654 -6.7404 -8.0544 -8.7504
26.609697 -9.6092 -9.6590 -6.7339 -8.0479 -8.7439
26.704902 -9.6028 -9.6526 -6.7276 -8.0415 -8.7375
26.800106 -9.5965 -9.6463 -6.7213 -8.0352 -8.7312
26.895311 -9.5903 -9.6400 -6.7150 -8.0290 -8.7250
26.990516 -9.5841 -9.6339 -6.7088 -8.0228 -8.7188
27.085721 -9.5780 -9.6277 -6.7027 -8.0167 -8.7127
27.180926 -9.5719 -9.6217 -6.6967 -8.0106 -8.7067
27.276131 -9.5660 -9.6157 -6.6907 -8.0047 -8.7007
27.371336 -9.5600 -9.6098 -6.6848 -7.9987 -8.6947
27.466541 -9.5542 -9.6039 -6.6789 -7.9929 -8.6889
27.561746 -9.5484 -9.5981 -6.6731 -7.9871 -8.6831
27.656951 -9.5426 -9.5924 -6.6674 -7.9813 -8.6773
27.752156 -9.5369 -9.5867 -6.6617 -7.9756 -8.6716
27.847361 -9.5313 -9.5811 -6.6560 -7.9700 -8.6660
27.942566 -9.5257 -9.5755 -6.6505 -7.9644 -8.6605
28.037770 -9.5202 -9.5700 -6.6450 -7.9589 -8.6549
28.132975 -9.5148 -9.5645 -6.6395 -7.9535 -8.6495
28.228180 -9.5094 -9.5591 -6.6341 -7.9481 -8.6441
28.323385 -9.5040 -9.5537 -6.6287 -7.9427 -8.6387
28.418590 -9.4987 -9.5484 -6.6234 -7.9374 -8.6334
28.513795 -9.4934 -9.5432 -6.6182 -7.9321 -8.6282
